time,seconds_elapsed,relativeAltitude,pressure
1742829710005292800,-0.367707275390625,0,1018.0103302001953
1742829711013863700,0.64086376953125,-0.031707763671875,1018.0143737792969
1742829712022431000,1.649430908203125,-0.06869888305664062,1018.0183410644531
1742829713030959900,2.6579599609375,-0.10040664672851562,1018.0226898193359
1742829714039449000,3.666448974609375,-0.1109771728515625,1018.0233764648438
1742829714387127000,4.014126953125,-0.158538818359375,1018.0294036865234
1742829715462935800,5.089935791015625,-0.17967605590820312,1018.0318450927734
1742829716538790000,6.165789794921875,-0.253662109375,1018.040771484375
1742829717614657000,7.241656982421875,-0.3540687561035156,1018.0526733398438
1742829718690476000,8.31747607421875,-0.4967536926269531,1018.0703735351562
1742829719766291000,9.393291015625,-0.6183013916015625,1018.0849456787109
1742829720842118100,10.4691181640625,-0.7662734985351562,1018.1026458740234
1742829721917966800,11.544966796875,-0.8772506713867188,1018.1163024902344
1742829722993787000,12.620786865234376,-0.9459495544433594,1018.1244659423828
1742829724069564000,13.69656396484375,-0.982940673828125,1018.128662109375
1742829725145370000,14.7723701171875,-1.046356201171875,1018.1361389160156
1742829726221165000,15.8481650390625,-1.0833511352539062,1018.140869140625
1742829727296968000,16.923968017578126,-1.109771728515625,1018.1440734863281
1742829728372788000,17.9997880859375,-1.1256256103515625,1018.1463623046875
1742829729448588800,19.0755888671875,-1.173187255859375,1018.15185546875
1742829730524385000,20.151385009765626,-1.1890411376953125,1018.1537628173828
1742829731600169000,21.2271689453125,-1.20489501953125,1018.1556701660156
1742829732675939800,22.30293994140625,-1.2418899536132812,1018.1603240966797
1742829733751753700,23.378753662109375,-1.2577438354492188,1018.1622314453125
1742829734827616000,24.454615966796876,-1.268310546875,1018.1634521484375
1742829735903466000,25.530466064453126,-1.2735977172851562,1018.1640625
1742829736979280000,26.60627978515625,-1.2788810729980469,1018.1647491455078
1742829738055059000,27.682058837890626,-1.2788810729980469,1018.1647491455078
1742829739130818800,28.75781884765625,-1.3264427185058594,1018.170166015625
1742829740206553900,29.833553955078123,-1.3581504821777344,1018.1742095947266
1742829741282307800,30.909307861328124,-1.4162826538085938,1018.1807708740234
1742829742358055000,31.985054931640626,-1.4691276550292969,1018.1874847412109
1742829743433764000,33.06076416015625,-1.5114059448242188,1018.1924438476562
1742829744509559000,34.13655908203125,-1.5114059448242188,1018.1924438476562
1742829745585353000,35.21235302734375,-1.4955520629882812,1018.1908416748047
1742829746661063000,36.28806298828125,-1.4691276550292969,1018.1874847412109
1742829747736825000,37.3638251953125,-1.4532737731933594,1018.1857299804688
1742829748812583000,38.4395830078125,-1.4374198913574219,1018.1836700439453
1742829749888330000,39.515330078125,-1.4109992980957031,1018.1804656982422
1742829750964056000,40.59105615234375,-1.3792915344238281,1018.1768798828125
1742829752039815000,41.66681494140625,-1.3792915344238281,1018.1768798828125
1742829753115559000,42.74255883789063,-1.4004287719726562,1018.1793975830078
1742829754191272000,43.81827197265625,-1.4057121276855469,1018.1798553466797
1742829755266976000,44.89397607421875,-1.4109992980957031,1018.1806945800781
1742829756342670000,45.969670166015625,-1.4109992980957031,1018.1806945800781
1742829757418419000,47.0454189453125,-1.3317298889160156,1018.1707763671875
1742829758494169000,48.12116918945313,-1.2207489013671875,1018.1571197509766
1742829759569884000,49.1968837890625,-1.0886344909667969,1018.1415557861328
1742829760645623800,50.27262377929687,-0.9406661987304688,1018.1238555908203
1742829761721366000,51.34836596679688,-0.792694091796875,1018.1057739257812
1742829762797047800,52.4240478515625,-0.7028541564941406,1018.0952453613281
1742829763872726000,53.49972607421875,-0.6235847473144531,1018.0855560302734
1742829764948432000,54.57543188476563,-0.5496025085449219,1018.0764770507812
1742829766024161800,55.65116186523438,-0.5126075744628906,1018.0722808837891
1742829767099850000,56.72685009765625,-0.50732421875,1018.0714416503906
1742829768175551000,57.80255102539063,-0.4967536926269531,1018.0704498291016
1742829769251223800,58.87822387695312,-0.4967536926269531,1018.0699920654297
1742829770326912000,59.953912109375,-0.4914703369140625,1018.0698394775391
1742829771402570000,61.02957006835938,-0.4914703369140625,1018.0697631835938
1742829772478233900,62.10523388671875,-0.4914703369140625,1018.0697631835938
1742829773553918700,63.180918701171876,-0.4967536926269531,1018.0699920654297
1742829774629612800,64.25661279296875,-0.4967536926269531,1018.0702209472656
1742829775705312000,65.33231201171876,-0.5020408630371094,1018.0710601806641
1742829776781056000,66.40805590820312,-0.5178947448730469,1018.072509765625
1742829777856813800,67.48381372070313,-0.5178947448730469,1018.072509765625
1742829778932542000,68.5595419921875,-0.475616455078125,1018.0678558349609
1742829780008272000,69.63527197265626,-0.4069175720214844,1018.05908203125
1742829781083986000,70.71098583984374,-0.3435020446777344,1018.0514526367188
1742829782159725800,71.78672583007813,-0.2695159912109375,1018.0426788330078
1742829783235423000,72.86242309570312,-0.17967605590820312,1018.0321502685547
1742829784311121000,73.93812084960938,-0.14796829223632812,1018.0283355712891
1742829785386878000,75.0138779296875,-0.14796829223632812,1018.0283355712891
1742829786462602000,76.08960205078125,-0.13211441040039062,1018.0263519287109
1742829787538369800,77.16536987304687,-0.12154388427734375,1018.0246734619141
1742829788614081800,78.24108178710938,-0.11626052856445312,1018.0243682861328
1742829789689836000,79.3168359375,-0.10040664672851562,1018.0225372314453
1742829790765580800,80.39258081054687,-0.10040664672851562,1018.0225372314453
1742829791841279000,81.46827905273437,-0.10569000244140625,1018.0230712890625
1742829792916975000,82.54397509765624,-0.10569000244140625,1018.0230712890625
1742829793992703000,83.61970288085938,-0.07398223876953125,1018.018798828125
1742829795068401000,84.69540087890626,0.031707763671875,1018.0063629150391
1742829796144083000,85.7710830078125,0.2061004638671875,1017.9851531982422
1742829797219832000,86.84683203125,0.3910636901855469,1017.9627990722656
1742829798295581700,87.92258178710938,0.5496025085449219,1017.9441070556641
1742829799371361000,88.99836108398438,0.6817207336425781,1017.9281616210938
1742829800447090000,90.07408984375,0.7609901428222656,1017.9187774658203
1742829801522747000,91.14974682617188,0.7715568542480469,1017.9174041748047
1742829802598431700,92.225431640625,0.7821273803710938,1017.916259765625
1742829803674180900,93.30118090820312,0.8561134338378906,1017.9071044921875
1742829804749898000,94.37689794921874,0.9565200805664062,1017.8952026367188
1742829805825620000,95.45261987304687,1.0622138977050781,1017.8820037841797
1742829806901300000,96.52830004882813,1.1573371887207031,1017.8704071044922
1742829807977011000,97.60401098632812,1.2524604797363281,1017.8594207763672
1742829809052732000,98.67973193359374,1.3105926513671875,1017.8519439697266
1742829810128425000,99.75542504882813,1.3423004150390625,1017.8485107421875
1742829811204116000,100.83111596679687,1.4057159423828125,1017.8411102294922
1742829812279829000,101.9068291015625,1.4797019958496094,1017.8317260742188
1742829813355564800,102.98256469726563,1.5536842346191406,1017.8231048583984
1742829814431306000,104.05830590820312,1.643524169921875,1017.8123474121094
1742829815507073800,105.13407373046876,1.7333641052246094,1017.8012084960938
1742829816582758000,106.2097578125,1.7809257507324219,1017.7957153320312
1742829817658428000,107.28542797851563,1.8126335144042969,1017.791748046875
1742829818734075000,108.36107495117187,1.8126335144042969,1017.791748046875
1742829819809752000,109.436751953125,1.7650718688964844,1017.7971649169922
1742829820885426000,110.51242602539062,1.7333641052246094,1017.8009796142578
1742829821961130800,111.588130859375,1.7280769348144531,1017.8017425537109
1742829823036789000,112.6637890625,1.6858024597167969,1017.8067779541016
1742829824112443000,113.73944287109374,1.643524169921875,1017.8123474121094
1742829825188140800,114.81514086914062,1.6276702880859375,1017.8142547607422
1742829826263834000,115.89083422851563,1.5853919982910156,1017.8189849853516
1742829827339514000,116.96651416015625,1.4744148254394531,1017.8327178955078
1742829828415170000,118.04217016601562,1.3000221252441406,1017.8532409667969
1742829829490834000,119.117833984375,1.1520538330078125,1017.87109375
1742829830566464000,120.19346411132813,1.0357894897460938,1017.8851318359375
1742829831642143000,121.26914306640624,0.9512367248535156,1017.8954315185547
1742829832717870800,122.34487084960938,0.945953369140625,1017.8965759277344
1742829833793537000,123.420537109375,0.945953369140625,1017.8965759277344
1742829834869166800,124.49616674804687,0.9829444885253906,1017.891845703125
1742829835944835000,125.5718349609375,0.9987983703613281,1017.8897857666016
1742829837020448000,126.64744799804687,0.9987983703613281,1017.8897857666016
1742829838096100900,127.72310083007812,0.9776611328125,1017.8921508789062
1742829839171734800,128.79873486328125,0.9670906066894531,1017.8938293457031
1742829840247346000,129.87434594726562,0.9670906066894531,1017.8938293457031
1742829841322979000,130.94997900390624,0.9882278442382812,1017.8913116455078
1742829842398631000,132.025630859375,0.9882278442382812,1017.8912353515625
1742829843474222800,133.10122290039064,0.9882278442382812,1017.8912353515625
1742829844549821000,134.17682104492187,0.9829444885253906,1017.8914642333984
1742829845625460700,135.25246069335938,0.945953369140625,1017.8963470458984
1742829846701058800,136.32805883789064,0.8878211975097656,1017.9030609130859
1742829847776675000,137.40367504882812,0.7926979064941406,1017.9144287109375
1742829848852224800,138.47922485351563,0.6922874450683594,1017.9268646240234
1742829849927834000,139.55483422851563,0.5548896789550781,1017.9434967041016
1742829851003427000,140.63042700195314,0.4703330993652344,1017.9533386230469
1742829852079022800,141.70602294921875,0.4703330993652344,1017.9533386230469
1742829853154656800,142.78165673828124,0.48090362548828125,1017.9525756835938
1742829854230288100,143.8572880859375,0.5707435607910156,1017.9417419433594
1742829855305930800,144.9329306640625,0.6605796813964844,1017.9303741455078
1742829856381587000,146.0085869140625,0.7609901428222656,1017.9182434082031
1742829857457196000,147.08419604492187,0.7609901428222656,1017.9182434082031
1742829858532825000,148.1598251953125,0.7398490905761719,1017.9209136962891
1742829859608401000,149.23540087890626,0.6605796813964844,1017.9308319091797
1742829860683986000,150.31098583984374,0.6024513244628906,1017.9376220703125
1742829861759602000,151.3866018066406,0.5390357971191406,1017.9453277587891
1742829862835251000,152.4622509765625,0.5178947448730469,1017.9476928710938
1742829863910893800,153.53789379882812,0.49675750732421875,1017.9505920410156
1742829864986523000,154.61352294921875,0.49675750732421875,1017.9505920410156
1742829866062111700,155.68911181640624,0.5073280334472656,1017.9487609863281
1742829867137750000,156.76475,0.5126113891601562,1017.9485321044922
1742829868213367000,157.84036694335938,0.5178947448730469,1017.9481506347656
1742829869288998000,158.91599780273438,0.5390357971191406,1017.9453277587891
1742829870364607700,159.99160766601562,0.5390357971191406,1017.9453277587891
1742829871440244000,161.06724389648437,0.5496025085449219,1017.9438781738281
1742829872515883000,162.1428830566406,0.5601730346679688,1017.9424285888672
1742829873591494000,163.21849389648438,0.5813102722167969,1017.9398345947266
1742829874667137800,164.2941376953125,0.5971641540527344,1017.9380035400391
1742829875742761000,165.36976098632812,0.6235885620117188,1017.9352569580078
1742829876818431700,166.445431640625,0.6500129699707031,1017.9318237304688
1742829877894107000,167.52110693359376,0.6605796813964844,1017.9304504394531
1742829878969764000,168.59676416015625,0.6922874450683594,1017.9270172119141
1742829880045451000,169.6724509277344,0.6922874450683594,1017.9270172119141
1742829881121121000,170.74812109375,0.6764335632324219,1017.9286956787109
1742829882196832000,171.82383203125,0.6711502075195312,1017.9293823242188
1742829883272532000,172.89953198242188,0.6605796813964844,1017.9304504394531
1742829884348232000,173.97523193359376,0.6447257995605469,1017.9325103759766
1742829885423924000,175.05092407226562,0.6288719177246094,1017.9344940185547
1742829886499686000,176.12668579101563,0.6183052062988281,1017.9354858398438
1742829887575442000,177.20244189453126,0.6130180358886719,1017.9364776611328
1742829888651191000,178.27819091796874,0.6130180358886719,1017.9364776611328
1742829889726893000,179.35389306640624,0.6130180358886719,1017.9363250732422
1742829890802591700,180.429591796875,0.6447257995605469,1017.9325103759766
1742829891878219800,181.5052197265625,0.6975746154785156,1017.9259490966797
1742829892953869800,182.58086987304688,0.7609901428222656,1017.9183959960938
1742829894029565700,183.6565656738281,0.8349723815917969,1017.9093170166016
1742829895105216000,184.73221606445313,0.945953369140625,1017.8965759277344
1742829896180914000,185.80791381835937,1.0463600158691406,1017.8840637207031
1742829897256596700,186.8835966796875,1.1520538330078125,1017.8713226318359
1742829898332291800,187.95929174804687,1.2788848876953125,1017.8562927246094
1742829899407959000,189.034958984375,1.4057159423828125,1017.8411102294922
1742829900483661000,190.1106611328125,1.4744148254394531,1017.8327178955078
1742829901559410700,191.18641064453124,1.5378303527832031,1017.8251647949219
1742829902635154000,192.26215380859375,1.5642547607421875,1017.8218078613281
1742829903710889700,193.3378896484375,1.5642547607421875,1017.8218078613281
1742829904786657800,194.41365771484374,1.54840087890625,1017.823486328125
1742829905862399700,195.48939965820313,1.516693115234375,1017.8272247314453
1742829906938158000,196.56515795898437,1.5008392333984375,1017.8289794921875
1742829908013891800,197.64089184570312,1.4479904174804688,1017.8354644775391
1742829909089634000,198.71663403320312,1.3740081787109375,1017.8443145751953
1742829910165335800,199.79233569335938,1.3000221252441406,1017.8533935546875
1742829911241030000,200.86802978515624,1.2366065979003906,1017.861328125
1742829912316699100,201.94369921875,1.1520538330078125,1017.8713226318359
1742829913392465000,203.01946484375,1.1150588989257812,1017.8760528564453
1742829914468205000,204.095205078125,1.0992050170898438,1017.8777313232422
1742829915543986000,205.17098583984375,1.0992050170898438,1017.8777313232422
1742829916619774000,206.24677392578124,1.1150588989257812,1017.8755187988281
1742829917695537000,207.32253686523438,1.1520538330078125,1017.8712463378906
1742829918771281000,208.3982810058594,1.1573371887207031,1017.8707885742188
1742829919846999000,209.4739990234375,1.16790771484375,1017.8694152832031
1742829920922696700,210.54969677734374,1.1943283081054688,1017.8662872314453
1742829921998395000,211.62539477539062,1.1943283081054688,1017.8662872314453
1742829923074103800,212.70110375976563,1.1890449523925781,1017.8670501708984
1742829924149824000,213.77682397460939,1.1837615966796875,1017.8677368164062
1742829925225535000,214.85253491210938,1.136199951171875,1017.8729248046875
1742829926301292000,215.9282919921875,1.0569305419921875,1017.8828430175781
1742829927377076000,217.00407592773436,0.9512367248535156,1017.8952789306641
1742829928452818000,218.07981787109375,0.8032646179199219,1017.9135894775391
1742829929528558800,219.15555883789062,0.6394424438476562,1017.9328918457031
1742829930604354800,220.23135473632811,0.4914741516113281,1017.9510498046875
1742829931680150000,221.30714990234375,0.3804969787597656,1017.9647064208984
1742829932755905000,222.38290502929686,0.24309539794921875,1017.9811096191406
1742829933831616800,223.45861669921874,0.1426849365234375,1017.9933166503906
1742829934907357000,224.53435693359376,0.07398605346679688,1018.0015563964844
1742829935983074800,225.61007470703126,0.03699493408203125,1018.0057525634766
1742829937058833000,226.6858330078125,0.0158538818359375,1018.0083465576172
1742829938134601700,227.7616018066406,0.0158538818359375,1018.0083465576172
1742829939210307800,228.83730786132813,0.031707763671875,1018.0061340332031
1742829940286059800,229.91305981445313,0.058132171630859375,1018.0033111572266
1742829941361774800,230.98877490234375,0.06870269775390625,1018.0017852783203
1742829942437524000,232.06452392578126,0.095123291015625,1017.9988861083984
1742829943513213000,233.140212890625,0.158538818359375,1017.9908752441406
1742829944588867000,234.2158671875,0.2800865173339844,1017.9761505126953
1742829945664594000,235.2915939941406,0.3804969787597656,1017.9645538330078
1742829946740300800,236.36730078125,0.4703330993652344,1017.9533386230469
1742829947816082000,237.44308203125,0.5813102722167969,1017.9402923583984
1742829948891815000,238.51881494140625,0.6183052062988281,1017.9359436035156
1742829949967551000,239.59455102539061,0.6183052062988281,1017.9357147216797
1742829951043283000,240.6702829589844,0.6183052062988281,1017.9359436035156
1742829952119031800,241.74603173828126,0.5971641540527344,1017.9380035400391
1742829953194767000,242.82176708984375,0.5601730346679688,1017.9424285888672
1742829954270503000,243.8975029296875,0.5390357971191406,1017.9450988769531
1742829955346267000,244.97326684570314,0.5284652709960938,1017.9464721679688
1742829956422024000,246.04902392578126,0.5178947448730469,1017.9476928710938
1742829957497792000,247.1247919921875,0.5178947448730469,1017.9476928710938
1742829958573571800,248.20057177734375,0.5390357971191406,1017.9454040527344
1742829959649329000,249.27632885742187,0.5443191528320312,1017.9447174072266
1742829960725106000,250.35210595703126,0.5443191528320312,1017.9447174072266
1742829961800900900,251.42790087890626,0.5178947448730469,1017.9480743408203
1742829962876712700,252.5037126464844,0.5020408630371094,1017.9498291015625
1742829963952497000,253.57949682617186,0.46504974365234375,1017.9544067382812
1742829965028277800,254.65527783203126,0.4544792175292969,1017.9556274414062
1742829966104089000,255.73108911132812,0.4544792175292969,1017.9556274414062
1742829967179891000,256.8068908691406,0.4597663879394531,1017.9550933837891
1742829968255669000,257.8826689453125,0.4703330993652344,1017.9535675048828
1742829969331441000,258.95844091796874,0.4703330993652344,1017.9535675048828
1742829970407234000,260.0342341308594,0.4280586242675781,1017.9583740234375
1742829971483029000,261.1100290527344,0.38578033447265625,1017.9640960693359
1742829972558861000,262.1858610839844,0.3329315185546875,1017.9698181152344
1742829973634653700,263.26165380859373,0.3276481628417969,1017.9706573486328
1742829974710423000,264.3374230957031,0.3276481628417969,1017.9706573486328
1742829975786197000,265.4131970214844,0.3752098083496094,1017.9649353027344
1742829976861982700,266.4889826660156,0.4386253356933594,1017.9573059082031
1742829977937746000,267.5647458496094,0.48090362548828125,1017.9521179199219
1742829979013527000,268.64052709960936,0.4861869812011719,1017.9514312744141
1742829980089284900,269.71628491210936,0.4861869812011719,1017.9514312744141
1742829981164992800,270.7919926757813,0.4756202697753906,1017.952880859375
1742829982240741000,271.8677412109375,0.4544792175292969,1017.9553985595703
1742829983316515800,272.94351586914064,0.4439125061035156,1017.9566955566406
1742829984392254700,274.0192546386719,0.4227714538574219,1017.9592132568359
1742829985467967000,275.09496704101565,0.4227714538574219,1017.9592132568359
1742829986543649800,276.17064990234377,0.4227714538574219,1017.9592132568359
1742829987619335000,277.2463349609375,0.4280586242675781,1017.9584503173828
1742829988695043800,278.3220439453125,0.4439125061035156,1017.9569244384766
